# Created by the starfile Python package (version 0.4.11) at 16:31:47 on 10/03/2022

data_tilt_images

loop_
_rlnTomoName #1
_rlnTomoTiltMovieFile #2
_rlnTomoTiltMovieFrameCount #3
_rlnTomoTiltMovieIndex #4
_rlnTomoNominalStageTiltAngle #5
_rlnTomoNominalTiltAxisAngle #6
_rlnOpticsGroup #7
_rlnTomoNominalDefocus #8
_rlnMicrographPreExposure #9
my_prefix_TS_01	test_data/TS_01_039_-60.0.mrc	8	39	-59.998600	85.300000	1	-4.000000	117.390000
my_prefix_TS_01	test_data/TS_01_038_-57.0.mrc	8	38	-56.998500	85.300000	1	-4.000000	114.380000
my_prefix_TS_01	test_data/TS_01_035_-54.0.mrc	8	35	-53.998900	85.300000	1	-4.000000	105.350000
my_prefix_TS_01	test_data/TS_01_034_-51.0.mrc	8	34	-50.998800	85.300000	1	-4.000000	102.340000
my_prefix_TS_01	test_data/TS_01_031_-48.0.mrc	8	31	-47.998600	85.300000	1	-4.000000	93.310000
my_prefix_TS_01	test_data/TS_01_030_-45.0.mrc	8	30	-44.999000	85.300000	1	-4.000000	90.300000
my_prefix_TS_01	test_data/TS_01_027_-42.0.mrc	8	27	-41.998900	85.300000	1	-4.000000	81.270000
my_prefix_TS_01	test_data/TS_01_026_-39.0.mrc	8	26	-38.998700	85.300000	1	-4.000000	78.260000
my_prefix_TS_01	test_data/TS_01_023_-36.0.mrc	8	23	-35.998600	85.300000	1	-4.000000	69.230000
my_prefix_TS_01	test_data/TS_01_022_-33.0.mrc	8	22	-32.999000	85.300000	1	-4.000000	66.220000
my_prefix_TS_01	test_data/TS_01_019_-30.0.mrc	8	19	-29.998800	85.300000	1	-4.000000	57.190000
my_prefix_TS_01	test_data/TS_01_018_-27.0.mrc	8	18	-26.999200	85.300000	1	-4.000000	54.180000
my_prefix_TS_01	test_data/TS_01_015_-24.0.mrc	8	15	-23.998600	85.300000	1	-4.000000	45.150000
my_prefix_TS_01	test_data/TS_01_014_-21.0.mrc	8	14	-20.998900	85.300000	1	-4.000000	42.140000
my_prefix_TS_01	test_data/TS_01_011_-18.0.mrc	8	11	-17.998800	85.300000	1	-4.000000	33.110000
my_prefix_TS_01	test_data/TS_01_010_-15.0.mrc	8	10	-14.998700	85.300000	1	-4.000000	30.100000
my_prefix_TS_01	test_data/TS_01_007_-12.0.mrc	8	7	-11.998500	85.300000	1	-4.000000	21.070000
my_prefix_TS_01	test_data/TS_01_006_-9.0.mrc	8	6	-8.998900	85.300000	1	-4.000000	18.060000
my_prefix_TS_01	test_data/TS_01_003_-6.0.mrc	8	3	-5.998760	85.300000	1	-4.000000	9.030000
my_prefix_TS_01	test_data/TS_01_002_-3.0.mrc	8	2	-2.998630	85.300000	1	-4.000000	6.020000
my_prefix_TS_01	test_data/TS_01_000_0.0.mrc	8	0	0.001000	85.300000	1	-4.000000	0.000000
my_prefix_TS_01	test_data/TS_01_001_3.0.mrc	8	1	3.001130	85.300000	1	-4.000000	3.010000
my_prefix_TS_01	test_data/TS_01_004_6.0.mrc	8	4	6.001260	85.300000	1	-4.000000	12.040000
my_prefix_TS_01	test_data/TS_01_005_9.0.mrc	8	5	9.001400	85.300000	1	-4.000000	15.050000
my_prefix_TS_01	test_data/TS_01_008_12.0.mrc	8	8	12.000500	85.300000	1	-4.000000	24.080000
my_prefix_TS_01	test_data/TS_01_009_15.0.mrc	8	9	15.000700	85.300000	1	-4.000000	27.090000
my_prefix_TS_01	test_data/TS_01_012_18.0.mrc	8	12	18.000800	85.300000	1	-4.000000	36.120000
my_prefix_TS_01	test_data/TS_01_013_21.0.mrc	8	13	21.000900	85.300000	1	-4.000000	39.130000
my_prefix_TS_01	test_data/TS_01_016_24.0.mrc	8	16	24.000600	85.300000	1	-4.000000	48.160000
my_prefix_TS_01	test_data/TS_01_017_27.0.mrc	8	17	27.000700	85.300000	1	-4.000000	51.170000
my_prefix_TS_01	test_data/TS_01_020_30.0.mrc	8	20	30.000800	85.300000	1	-4.000000	60.200000
my_prefix_TS_01	test_data/TS_01_021_33.0.mrc	8	21	33.001000	85.300000	1	-4.000000	63.210000
my_prefix_TS_01	test_data/TS_01_024_36.0.mrc	8	24	36.000600	85.300000	1	-4.000000	72.240000
my_prefix_TS_01	test_data/TS_01_025_39.0.mrc	8	25	39.000700	85.300000	1	-4.000000	75.250000
my_prefix_TS_01	test_data/TS_01_028_42.0.mrc	8	28	42.000900	85.300000	1	-4.000000	84.280000
my_prefix_TS_01	test_data/TS_01_029_45.0.mrc	8	29	45.001000	85.300000	1	-4.000000	87.290000
my_prefix_TS_01	test_data/TS_01_032_48.0.mrc	8	32	48.000600	85.300000	1	-4.000000	96.320000
my_prefix_TS_01	test_data/TS_01_033_51.0.mrc	8	33	51.000800	85.300000	1	-4.000000	99.330000
my_prefix_TS_01	test_data/TS_01_036_54.0.mrc	8	36	54.000900	85.300000	1	-4.000000	108.360000
my_prefix_TS_01	test_data/TS_01_037_57.0.mrc	8	37	57.000000	85.300000	1	-4.000000	111.370000
my_prefix_TS_01	test_data/TS_01_040_60.0.mrc	8	40	60.000600	85.300000	1	-4.000000	120.400000


